Time_abs/ps, Signal/nA
  3025.000,     0.035495
  3025.050,     0.031041
  3025.100,     0.023628
  3025.150,     0.020484
  3025.200,     0.016538
  3025.250,     0.015237
  3025.300,     0.013875
  3025.350,     0.009422
  3025.400,     0.006365
  3025.450,     0.002588
  3025.500,    -0.001290
  3025.550,    -0.005092
  3025.600,    -0.005121
  3025.650,    -0.006957
  3025.700,    -0.012992
  3025.750,    -0.015379
  3025.800,    -0.020172
  3025.850,    -0.026190
  3025.900,    -0.035634
  3025.950,    -0.045847
  3026.000,    -0.060765
  3026.050,    -0.083140
  3026.100,    -0.109257
  3026.150,    -0.134807
  3026.200,    -0.158107
  3026.250,    -0.170551
  3026.300,    -0.165231
  3026.350,    -0.138235
  3026.400,    -0.078827
  3026.450,     0.005453
  3026.500,     0.104174
  3026.550,     0.197789
  3026.600,     0.269011
  3026.650,     0.300704
  3026.700,     0.286498
  3026.750,     0.222096
  3026.800,     0.129249
  3026.850,     0.027734
  3026.900,    -0.070309
  3026.950,    -0.156124
  3027.000,    -0.218182
  3027.050,    -0.256501
  3027.100,    -0.269133
  3027.150,    -0.258929
  3027.200,    -0.234146
  3027.250,    -0.198163
  3027.300,    -0.165891
  3027.350,    -0.138599
  3027.400,    -0.125215
  3027.450,    -0.122947
  3027.500,    -0.134564
  3027.550,    -0.151877
  3027.600,    -0.174443
  3027.650,    -0.199416
  3027.700,    -0.215604
  3027.750,    -0.230413
  3027.800,    -0.238543
  3027.850,    -0.230641
  3027.900,    -0.208134
  3027.950,    -0.171172
  3028.000,    -0.118244
  3028.050,    -0.062248
  3028.100,     0.000411
  3028.150,     0.060040
  3028.200,     0.093296
  3028.250,     0.099253
  3028.300,     0.073411
  3028.350,     0.017047
  3028.400,    -0.055617
  3028.450,    -0.127690
  3028.500,    -0.180728
  3028.550,    -0.209434
  3028.600,    -0.219502
  3028.650,    -0.215883
  3028.700,    -0.207024
  3028.750,    -0.199460
  3028.800,    -0.201932
  3028.850,    -0.204832
  3028.900,    -0.205577
  3028.950,    -0.206671
  3029.000,    -0.212539
  3029.050,    -0.214690
  3029.100,    -0.210328
  3029.150,    -0.201986
  3029.200,    -0.189249
  3029.250,    -0.171286
  3029.300,    -0.156636
  3029.350,    -0.143539
  3029.400,    -0.126602
  3029.450,    -0.112268
  3029.500,    -0.099482
  3029.550,    -0.093426
  3029.600,    -0.088913
  3029.650,    -0.084406
  3029.700,    -0.089161
  3029.750,    -0.097897
  3029.800,    -0.101974
  3029.850,    -0.107089
  3029.900,    -0.111599
  3029.950,    -0.108993
  3030.000,    -0.102357
  3030.050,    -0.093926
  3030.100,    -0.088455
  3030.150,    -0.089572
  3030.200,    -0.102619
  3030.250,    -0.120285
  3030.300,    -0.137917
  3030.350,    -0.158772
  3030.400,    -0.173146
  3030.450,    -0.179890
  3030.500,    -0.186121
  3030.550,    -0.186462
  3030.600,    -0.183036
  3030.650,    -0.182887
  3030.700,    -0.175270
  3030.750,    -0.167853
  3030.800,    -0.169359
  3030.850,    -0.172711
  3030.900,    -0.176944
  3030.950,    -0.185888
  3031.000,    -0.198248
  3031.050,    -0.210292
  3031.100,    -0.220534
  3031.150,    -0.218634
  3031.200,    -0.200748
  3031.250,    -0.165328
  3031.300,    -0.116251
  3031.350,    -0.057630
  3031.400,     0.006985
  3031.450,     0.061269
  3031.500,     0.086201
  3031.550,     0.077573
  3031.600,     0.032019
  3031.650,    -0.040119
  3031.700,    -0.120456
  3031.750,    -0.200419
  3031.800,    -0.259774
  3031.850,    -0.289049
  3031.900,    -0.297333
  3031.950,    -0.278343
  3032.000,    -0.241455
  3032.050,    -0.192819
  3032.100,    -0.137954
  3032.150,    -0.084407
  3032.200,    -0.043633
  3032.250,    -0.016392
  3032.300,    -0.001728
  3032.350,     0.004059
  3032.400,     0.001390
  3032.450,    -0.006154
  3032.500,    -0.012981
  3032.550,    -0.019825
  3032.600,    -0.013820
  3032.650,    -0.003289
  3032.700,     0.017281
  3032.750,     0.044441
  3032.800,     0.069783
  3032.850,     0.105238
  3032.900,     0.135380
  3032.950,     0.154444
  3033.000,     0.165180
  3033.050,     0.170137
  3033.100,     0.170065
  3033.150,     0.163317
  3033.201,     0.147492
  3033.251,     0.136900
  3033.301,     0.131311
  3033.351,     0.131726
  3033.401,     0.130500
  3033.451,     0.130897
  3033.501,     0.123187
  3033.551,     0.095760
  3033.601,     0.036718
  3033.651,    -0.065684
  3033.701,    -0.229405
  3033.751,    -0.473781
  3033.801,    -0.817964
  3033.851,    -1.287077
  3033.901,    -1.920284
  3033.951,    -2.769810
  3034.001,    -3.910031
  3034.051,    -5.441624
  3034.101,    -7.511942
  3034.151,   -10.289818
  3034.201,   -13.956260
  3034.251,   -18.661602
  3034.301,   -24.422008
  3034.351,   -30.984939
  3034.401,   -37.637804
  3034.451,   -42.993751
  3034.501,   -44.872896
  3034.551,   -40.419773
  3034.601,   -26.618490
  3034.651,    -1.285146
  3034.701,    35.592803
  3034.751,    80.642704
  3034.801,   126.626783
  3034.851,   163.506062
  3034.901,   181.116335
  3034.951,   172.861972
  3035.001,   138.570535
  3035.051,    84.736764
  3035.101,    21.981073
  3035.151,   -38.646919
  3035.201,   -88.633425
  3035.251,  -122.956678
  3035.301,  -139.642943
  3035.351,  -139.053116
  3035.401,  -123.559658
  3035.451,   -97.435595
  3035.501,   -66.207513
  3035.551,   -35.435447
  3035.601,    -9.475078
  3035.651,     9.090901
  3035.701,    19.408450
  3035.751,    22.029063
  3035.801,    18.629017
  3035.851,    11.579224
  3035.901,     3.401882
  3035.951,    -3.664774
  3036.001,    -7.927549
  3036.051,    -8.355233
  3036.101,    -4.726832
  3036.151,     2.368956
  3036.201,    11.629426
  3036.251,    21.215516
  3036.301,    29.053686
  3036.351,    33.353912
  3036.401,    33.213773
  3036.451,    28.870340
  3036.501,    21.481172
  3036.551,    12.625911
  3036.601,     3.846199
  3036.651,    -3.638538
  3036.701,    -9.046655
  3036.751,   -12.061270
  3036.801,   -12.779702
  3036.851,   -11.625934
  3036.901,    -9.216628
  3036.951,    -6.188461
  3037.001,    -3.122374
  3037.051,    -0.498334
  3037.101,     1.358907
  3037.151,     2.351129
  3037.201,     2.557749
  3037.251,     2.103468
  3037.301,     1.169756
  3037.351,     0.018792
  3037.401,    -1.059891
  3037.451,    -1.826881
  3037.501,    -2.111598
  3037.551,    -1.856716
  3037.601,    -1.138156
  3037.651,    -0.123601
  3037.701,     1.002968
  3037.751,     2.049291
  3037.801,     2.837940
  3037.851,     3.274395
  3037.901,     3.395092
  3037.951,     3.241770
  3038.001,     2.838177
  3038.051,     2.192758
  3038.101,     1.349031
  3038.151,     0.368033
  3038.201,    -0.627330
  3038.251,    -1.480573
  3038.301,    -2.078214
  3038.351,    -2.352706
  3038.401,    -2.331348
  3038.451,    -2.093756
  3038.501,    -1.743058
  3038.551,    -1.383974
  3038.601,    -1.066488
  3038.651,    -0.816000
  3038.701,    -0.616964
  3038.751,    -0.465761
  3038.801,    -0.362558
  3038.851,    -0.291423
  3038.901,    -0.224459
  3038.951,    -0.107988
  3039.001,     0.109879
  3039.051,     0.421838
  3039.101,     0.770576
  3039.151,     1.077592
  3039.201,     1.255215
  3039.251,     1.250113
  3039.301,     1.050434
  3039.351,     0.700453
  3039.401,     0.281337
  3039.451,    -0.141156
  3039.501,    -0.531282
  3039.551,    -0.868339
  3039.601,    -1.158749
  3039.651,    -1.414368
  3039.701,    -1.623857
  3039.751,    -1.782016
  3039.801,    -1.883193
  3039.851,    -1.918510
  3039.901,    -1.861903
  3039.951,    -1.694187
  3040.001,    -1.416541
  3040.051,    -1.039314
  3040.101,    -0.616840
  3040.151,    -0.198663
  3040.201,     0.162523
  3040.251,     0.430815
  3040.301,     0.596742
  3040.351,     0.681471
  3040.401,     0.729236
  3040.451,     0.797379
  3040.501,     0.902864
  3040.551,     1.039983
  3040.601,     1.149450
  3040.651,     1.171667
  3040.701,     1.050481
  3040.751,     0.756159
  3040.801,     0.306878
  3040.851,    -0.218263
  3040.901,    -0.709752
  3040.951,    -1.049203
  3041.001,    -1.175571
  3041.051,    -1.084374
  3041.101,    -0.831401
  3041.151,    -0.500665
  3041.201,    -0.173085
  3041.251,     0.078936
  3041.301,     0.226820
  3041.351,     0.263189
  3041.401,     0.191295
  3041.451,     0.034215
  3041.501,    -0.170782
  3041.551,    -0.380418
  3041.601,    -0.544053
  3041.651,    -0.618132
  3041.701,    -0.592703
  3041.751,    -0.477240
  3041.801,    -0.309790
  3041.851,    -0.131253
  3041.901,     0.018223
  3041.951,     0.106401
  3042.001,     0.119305
  3042.051,     0.066042
  3042.101,    -0.019703
  3042.151,    -0.107504
  3042.201,    -0.163522
  3042.251,    -0.176258
  3042.301,    -0.143319
  3042.351,    -0.068437
  3042.401,     0.048280
  3042.451,     0.188864
  3042.501,     0.324418
  3042.551,     0.445038
  3042.601,     0.528735
  3042.651,     0.566897
  3042.701,     0.554155
  3042.751,     0.480789
  3042.801,     0.350235
  3042.851,     0.175472
  3042.901,    -0.017659
  3042.951,    -0.203807
  3043.001,    -0.359734
  3043.051,    -0.466989
  3043.101,    -0.517302
  3043.151,    -0.509295
  3043.201,    -0.452400
  3043.251,    -0.370148
  3043.301,    -0.302628
  3043.351,    -0.298153
  3043.401,    -0.407199
  3043.451,    -0.639861
  3043.501,    -1.003391
  3043.551,    -1.466417
  3043.601,    -1.968830
  3043.651,    -2.416863
  3043.701,    -2.694100
  3043.751,    -2.699674
  3043.801,    -2.362692
  3043.851,    -1.686570
  3043.901,    -0.763944
  3043.951,     0.238741
  3044.001,     1.142570
  3044.051,     1.811688
  3044.101,     2.179350
  3044.151,     2.269055
  3044.201,     2.144302
  3044.251,     1.867865
  3044.301,     1.478646
  3044.351,     1.025686
  3044.401,     0.546796
  3044.451,     0.127339
  3044.501,    -0.171743
  3044.551,    -0.307774
  3044.601,    -0.299775
  3044.651,    -0.196318
  3044.701,    -0.050269
  3044.751,     0.093600
  3044.801,     0.185038
  3044.851,     0.183270
  3044.901,     0.052563
  3044.951,    -0.185860
  3045.001,    -0.463939
  3045.051,    -0.711141
  3045.101,    -0.857194
  3045.151,    -0.886489
  3045.201,    -0.813639
  3045.251,    -0.670973
  3045.301,    -0.486955
  3045.351,    -0.289450
  3045.401,    -0.116580
  3045.451,     0.005896
  3045.501,     0.061870
  3045.551,     0.075468
  3045.601,     0.065187
  3045.651,     0.055888
  3045.701,     0.059548
  3045.751,     0.074499
  3045.801,     0.073647
  3045.851,     0.032768
  3045.901,    -0.057745
  3045.951,    -0.178745
  3046.001,    -0.287861
  3046.051,    -0.357125
  3046.101,    -0.375164
  3046.151,    -0.350212
  3046.201,    -0.309971
  3046.251,    -0.276186
  3046.301,    -0.253964
  3046.351,    -0.246214
  3046.401,    -0.240790
  3046.451,    -0.224402
  3046.501,    -0.191267
  3046.551,    -0.136454
  3046.601,    -0.067260
  3046.651,     0.002284
  3046.701,     0.048309
  3046.751,     0.062346
  3046.801,     0.045502
  3046.851,     0.008215
  3046.901,    -0.023625
  3046.951,    -0.028001
  3047.001,    -0.003881
  3047.051,     0.036871
  3047.101,     0.084833
  3047.151,     0.141482
  3047.201,     0.189832
  3047.251,     0.221241
  3047.301,     0.223889
  3047.351,     0.192821
  3047.401,     0.139577
  3047.451,     0.073479
  3047.501,     0.006226
  3047.551,    -0.058025
  3047.601,    -0.114435
  3047.651,    -0.157406
  3047.701,    -0.185191
  3047.751,    -0.182422
  3047.801,    -0.153871
  3047.851,    -0.106236
  3047.901,    -0.052176
  3047.951,    -0.010212
  3048.001,    -0.006876
  3048.051,    -0.037628
  3048.101,    -0.095042
  3048.151,    -0.151824
  3048.201,    -0.185456
  3048.251,    -0.182602
  3048.301,    -0.142875
  3048.351,    -0.074268
  3048.401,     0.004372
  3048.451,     0.074183
  3048.501,     0.123987
  3048.551,     0.152786
  3048.601,     0.146242
  3048.651,     0.108025
  3048.701,     0.054011
  3048.751,    -0.018822
  3048.801,    -0.094324
  3048.851,    -0.159147
  3048.901,    -0.205232
  3048.951,    -0.221410
  3049.001,    -0.208458
  3049.051,    -0.176409
  3049.101,    -0.135349
  3049.151,    -0.111442
  3049.201,    -0.117508
  3049.251,    -0.164744
  3049.301,    -0.249801
  3049.351,    -0.370721
  3049.401,    -0.500964
  3049.451,    -0.615147
  3049.501,    -0.687873
  3049.551,    -0.696094
  3049.602,    -0.642140
  3049.652,    -0.535555
  3049.702,    -0.393839
  3049.752,    -0.245545
  3049.802,    -0.108442
  3049.852,     0.004620
  3049.902,     0.093641
  3049.952,     0.165819
  3050.002,     0.229301
  3050.052,     0.284667
  3050.102,     0.320696
  3050.152,     0.331165
  3050.202,     0.306115
  3050.252,     0.243150
  3050.302,     0.147354
  3050.352,     0.025783
  3050.402,    -0.092541
  3050.452,    -0.196392
  3050.502,    -0.263828
  3050.552,    -0.294904
  3050.602,    -0.285725
  3050.652,    -0.249032
  3050.702,    -0.200616
  3050.752,    -0.144592
  3050.802,    -0.093351
  3050.852,    -0.057186
  3050.902,    -0.035206
  3050.952,    -0.045057
  3051.002,    -0.083502
  3051.052,    -0.145999
  3051.102,    -0.216184
  3051.152,    -0.278470
  3051.202,    -0.307945
  3051.252,    -0.306753
  3051.302,    -0.275699
  3051.352,    -0.230746
  3051.402,    -0.176340
  3051.452,    -0.126421
  3051.502,    -0.084828
  3051.552,    -0.046174
  3051.602,    -0.008971
  3051.652,     0.019700
  3051.702,     0.041877
  3051.752,     0.043169
  3051.802,     0.024585
  3051.852,    -0.013935
  3051.902,    -0.056942
  3051.952,    -0.102936
  3052.002,    -0.142858
  3052.052,    -0.165202
  3052.102,    -0.168358
  3052.152,    -0.154190
  3052.202,    -0.129430
  3052.252,    -0.107429
  3052.302,    -0.088581
  3052.352,    -0.078687
  3052.402,    -0.079766
  3052.452,    -0.095885
  3052.502,    -0.116477
  3052.552,    -0.139627
  3052.602,    -0.160148
  3052.652,    -0.189021
  3052.702,    -0.226166
  3052.752,    -0.272493
  3052.802,    -0.328829
  3052.852,    -0.388635
  3052.902,    -0.435761
  3052.952,    -0.466671
  3053.002,    -0.486856
  3053.052,    -0.488213
  3053.102,    -0.482365
  3053.152,    -0.477648
  3053.202,    -0.475577
  3053.252,    -0.475333
  3053.302,    -0.472206
  3053.352,    -0.451571
  3053.402,    -0.407448
  3053.452,    -0.339850
  3053.502,    -0.253933
  3053.552,    -0.164787
  3053.602,    -0.088664
  3053.652,    -0.041867
  3053.702,    -0.034948
  3053.752,    -0.068504
  3053.802,    -0.131642
  3053.852,    -0.206667
  3053.902,    -0.272697
  3053.952,    -0.324575
  3054.002,    -0.354699
  3054.052,    -0.349582
  3054.102,    -0.315210
  3054.152,    -0.242606
  3054.202,    -0.147413
  3054.252,    -0.049686
  3054.302,     0.029385
  3054.352,     0.088694
  3054.402,     0.103052
  3054.452,     0.082742
  3054.502,     0.042083
  3054.552,    -0.015969
  3054.602,    -0.065966
  3054.652,    -0.096811
  3054.702,    -0.114859
  3054.752,    -0.115407
  3054.802,    -0.115869
  3054.852,    -0.134775
  3054.902,    -0.174221
  3054.952,    -0.242517
  3055.002,    -0.321825
  3055.052,    -0.383225
  3055.102,    -0.401960
  3055.152,    -0.375629
  3055.202,    -0.295746
  3055.252,    -0.172180
  3055.302,    -0.035535
  3055.352,     0.089010
  3055.402,     0.177993
  3055.452,     0.224471
  3055.502,     0.215159
  3055.552,     0.150659
  3055.602,     0.041841
  3055.652,    -0.083011
  3055.702,    -0.205129
  3055.752,    -0.285682
  3055.802,    -0.306690
  3055.852,    -0.274927
  3055.902,    -0.228986
  3055.952,    -0.190493
  3056.002,    -0.173097
  3056.052,    -0.179605
  3056.102,    -0.180464
  3056.152,    -0.173201
  3056.202,    -0.159735
  3056.252,    -0.165915
  3056.302,    -0.191339
  3056.352,    -0.233279
  3056.402,    -0.269312
  3056.452,    -0.284497
  3056.502,    -0.269413
  3056.552,    -0.235440
  3056.602,    -0.185711
  3056.652,    -0.117013
  3056.702,    -0.039340
  3056.752,     0.048595
  3056.802,     0.119738
  3056.852,     0.157479
  3056.902,     0.165550
  3056.952,     0.147804
  3057.002,     0.113289
  3057.052,     0.057553
  3057.102,    -0.003295
  3057.152,    -0.065703
  3057.202,    -0.113130
  3057.252,    -0.134478
  3057.302,    -0.141883
  3057.352,    -0.149481
  3057.402,    -0.178630
  3057.452,    -0.225968
  3057.502,    -0.273627
  3057.552,    -0.315042
  3057.602,    -0.341159
  3057.652,    -0.351614
  3057.702,    -0.353698
  3057.752,    -0.331008
  3057.802,    -0.292143
  3057.852,    -0.235275
  3057.902,    -0.173185
  3057.952,    -0.116872
  3058.002,    -0.075969
  3058.052,    -0.043256
  3058.102,    -0.019182
  3058.152,    -0.021136
  3058.202,    -0.031298
  3058.252,    -0.044871
  3058.302,    -0.052444
  3058.352,    -0.050843
  3058.402,    -0.037516
  3058.452,    -0.015930
  3058.502,     0.005839
  3058.552,     0.023310
  3058.602,     0.026641
  3058.652,     0.014122
  3058.702,    -0.018661
  3058.752,    -0.066324
  3058.802,    -0.122866
  3058.852,    -0.168231
  3058.902,    -0.202903
  3058.952,    -0.227232
  3059.002,    -0.237024
  3059.052,    -0.220770
  3059.102,    -0.177424
  3059.152,    -0.102752
  3059.202,    -0.002688
  3059.252,     0.122274
  3059.302,     0.249512
  3059.352,     0.366166
  3059.402,     0.455518
  3059.452,     0.498838
  3059.502,     0.478487
  3059.552,     0.384043
  3059.602,     0.224866
  3059.652,    -0.002372
  3059.702,    -0.269408
  3059.752,    -0.531360
  3059.802,    -0.754927
  3059.852,    -0.895607
  3059.902,    -0.942929
  3059.952,    -0.906138
  3060.002,    -0.807699
  3060.052,    -0.666692
  3060.102,    -0.503832
  3060.152,    -0.319195
  3060.202,    -0.102769
  3060.252,     0.145672
  3060.302,     0.411650
  3060.352,     0.666484
  3060.402,     0.863522
  3060.452,     0.954939
  3060.502,     0.911327
  3060.552,     0.737619
  3060.602,     0.466983
  3060.652,     0.160425
  3060.702,    -0.121671
  3060.752,    -0.338565
  3060.802,    -0.461481
  3060.852,    -0.507343
  3060.902,    -0.492879
  3060.952,    -0.431271
  3061.002,    -0.349413
  3061.052,    -0.259250
  3061.102,    -0.179086
  3061.152,    -0.121174
  3061.202,    -0.099426
  3061.252,    -0.113550
  3061.302,    -0.156260
  3061.352,    -0.205820
  3061.402,    -0.253363
  3061.452,    -0.285959
  3061.502,    -0.295783
  3061.552,    -0.291204
  3061.602,    -0.265924
  3061.652,    -0.225058
  3061.702,    -0.162904
  3061.752,    -0.086913
  3061.802,    -0.005061
  3061.852,     0.070294
  3061.902,     0.113127
  3061.952,     0.121165
  3062.002,     0.098360
  3062.052,     0.057258
  3062.102,     0.007216
  3062.152,    -0.042451
  3062.202,    -0.084220
  3062.252,    -0.117627
  3062.302,    -0.142035
  3062.352,    -0.155867
  3062.402,    -0.148907
  3062.452,    -0.132891
  3062.502,    -0.110909
  3062.552,    -0.082612
  3062.602,    -0.058212
  3062.652,    -0.042649
  3062.702,    -0.034759
  3062.752,    -0.033371
  3062.802,    -0.049392
  3062.852,    -0.086189
  3062.902,    -0.135527
  3062.952,    -0.183497
  3063.002,    -0.230196
  3063.052,    -0.253818
  3063.102,    -0.257152
  3063.152,    -0.234728
  3063.202,    -0.199371
  3063.252,    -0.146666
  3063.302,    -0.093791
  3063.352,    -0.047850
